Frequency(Hz),Impedance
1.00E+04,4.669520032
1.25E+04,4.574001969
1.50E+04,4.496000535
1.75E+04,4.429838751
2.00E+04,4.372532794
2.25E+04,4.322007245
2.50E+04,4.276782819
2.75E+04,4.235853935
3.00E+04,4.198421112
3.25E+04,4.163952164
3.50E+04,4.13143255
3.75E+04,4.102463029
4.00E+04,4.074453916
4.25E+04,4.048761302
4.50E+04,4.023777514
4.75E+04,4.000731884
5.00E+04,3.978513803
5.25E+04,3.957522954
5.50E+04,3.937443396
5.75E+04,3.918278036
6.00E+04,3.899931823
6.25E+04,3.882324336
6.50E+04,3.86538508
6.75E+04,3.849065618
7.00E+04,3.833368802
7.25E+04,3.818283136
7.50E+04,3.803567126
7.75E+04,3.789401461
8.00E+04,3.775748059
8.25E+04,3.762370996
8.50E+04,3.749478209
8.75E+04,3.736954364
9.00E+04,3.724773107
9.25E+04,3.712898358
9.50E+04,3.701364978
9.75E+04,3.690130155
1.00E+05,3.679151489
1.03E+05,3.668439353
1.05E+05,3.658014545
1.08E+05,3.647782651
1.10E+05,3.637848531
1.13E+05,3.628118109
1.15E+05,3.61860467
1.18E+05,3.609262559
1.20E+05,3.600115346
1.23E+05,3.591211483
1.25E+05,3.582477441
1.28E+05,3.573828929
1.30E+05,3.565389372
1.33E+05,3.55716966
1.35E+05,3.549049739
1.38E+05,3.541074594
1.40E+05,3.533232796
1.43E+05,3.525538063
1.45E+05,3.517974309
1.48E+05,3.510538687
1.50E+05,3.503218674
1.53E+05,3.49607619
1.55E+05,3.488973492
1.58E+05,3.482017126
1.60E+05,3.475149059
1.63E+05,3.468426765
1.65E+05,3.461797134
1.68E+05,3.455225211
1.70E+05,3.448768391
1.73E+05,3.442375427
1.75E+05,3.436130267
1.78E+05,3.42996302
1.80E+05,3.42385342
1.83E+05,3.417816989
1.85E+05,3.411886668
1.88E+05,3.406026062
1.90E+05,3.400237308
1.93E+05,3.394511424
1.95E+05,3.38889382
1.98E+05,3.383316736
2.00E+05,3.377835627
2.03E+05,3.372414328
2.05E+05,3.367033246
2.08E+05,3.361742542
2.10E+05,3.356519464
2.13E+05,3.351329837
2.15E+05,3.346217054
2.18E+05,3.341133914
2.20E+05,3.336143813
2.23E+05,3.331177416
2.25E+05,3.326297155
2.28E+05,3.321438389
2.30E+05,3.316660427
2.33E+05,3.311934038
2.35E+05,3.307234888
2.38E+05,3.302571843
2.40E+05,3.297989336
2.43E+05,3.29343187
2.45E+05,3.288936177
2.48E+05,3.28446789
2.50E+05,3.280050115
2.53E+05,3.275655341
2.55E+05,3.271331161
2.58E+05,3.267034419
2.60E+05,3.262790095
2.63E+05,3.258562708
2.65E+05,3.254404151
2.68E+05,3.25026843
2.70E+05,3.246175209
2.73E+05,3.242111335
2.75E+05,3.238087124
2.78E+05,3.234072644
2.80E+05,3.230112421
2.83E+05,3.226202246
2.85E+05,3.222323305
2.88E+05,3.218445863
2.90E+05,3.214610164
2.93E+05,3.210833064
2.95E+05,3.20706087
2.98E+05,3.203337772
3.00E+05,3.199628313
3.03E+05,3.195941979
3.05E+05,3.192306989
3.08E+05,3.188685354
3.10E+05,3.185100965
3.13E+05,3.181529673
3.15E+05,3.177989192
3.18E+05,3.174467258
3.20E+05,3.171013682
3.23E+05,3.167533938
3.25E+05,3.164112597
3.28E+05,3.16069526
3.30E+05,3.157323403
3.33E+05,3.15397641
3.35E+05,3.150634261
3.38E+05,3.147327476
3.40E+05,3.144040534
3.43E+05,3.140765281
3.45E+05,3.137521951
3.48E+05,3.134308898
3.50E+05,3.13110367
3.53E+05,3.127948594
3.55E+05,3.124782459
3.58E+05,3.121638751
3.60E+05,3.118538926
3.63E+05,3.115424465
3.65E+05,3.11235812
3.68E+05,3.109287445
3.70E+05,3.106255725
3.73E+05,3.103240408
3.75E+05,3.100255371
3.78E+05,3.097277183
3.80E+05,3.094300937
3.83E+05,3.091347069
3.85E+05,3.088421155
3.88E+05,3.08551317
3.90E+05,3.082631901
3.93E+05,3.079750247
3.95E+05,3.076907273
3.98E+05,3.074060467
4.00E+05,3.071236913
4.03E+05,3.068439724
4.05E+05,3.06562887
4.08E+05,3.0628613
4.10E+05,3.060094653
4.13E+05,3.057370465
4.15E+05,3.054601431
4.18E+05,3.051923316
4.20E+05,3.049217319
4.23E+05,3.046532329
4.25E+05,3.043860358
4.28E+05,3.041171088
4.30E+05,3.038599653
4.33E+05,3.035934845
4.35E+05,3.033296049
4.38E+05,3.030713528
4.40E+05,3.028130737
4.43E+05,3.025543003
4.45E+05,3.022983424
4.48E+05,3.020442757
4.50E+05,3.017889745
4.53E+05,3.015381637
4.55E+05,3.012870644
4.58E+05,3.010388315
4.60E+05,3.007872247
4.63E+05,3.005383933
4.65E+05,3.002945942
4.68E+05,3.000510948
4.70E+05,2.998083297
4.73E+05,2.995643806
4.75E+05,2.993216544
4.78E+05,2.990831361
4.80E+05,2.988399237
4.83E+05,2.986040193
4.85E+05,2.983672739
4.88E+05,2.981303988
4.90E+05,2.978951736
4.93E+05,2.976613272
4.95E+05,2.974300288
4.98E+05,2.971991206
5.00E+05,2.969666642
5.03E+05,2.967375363
5.05E+05,2.965076873
5.08E+05,2.962816924
5.10E+05,2.96054892
5.13E+05,2.958284259
5.15E+05,2.956067819
5.18E+05,2.953813341
5.20E+05,2.951546358
5.23E+05,2.9493429
5.25E+05,2.947138302
5.28E+05,2.944931926
5.30E+05,2.942730641
5.33E+05,2.94055904
5.35E+05,2.938385158
5.38E+05,2.936186729
5.40E+05,2.934038152
5.43E+05,2.931898808
5.45E+05,2.929732819
5.48E+05,2.927621382
5.50E+05,2.925490538
5.53E+05,2.923384924
5.55E+05,2.92127164
5.58E+05,2.919172148
5.60E+05,2.917082152
5.63E+05,2.914993269
5.65E+05,2.912927371
5.68E+05,2.910844581
5.70E+05,2.908799621
5.73E+05,2.906718243
5.75E+05,2.904680257
5.78E+05,2.902640579
5.80E+05,2.900610721
5.83E+05,2.898577395
5.85E+05,2.896574541
5.88E+05,2.894567425
5.90E+05,2.892565871
5.93E+05,2.890572021
5.95E+05,2.888581283
5.98E+05,2.886582675
6.00E+05,2.884616273
6.03E+05,2.882651947
6.05E+05,2.880682558
6.08E+05,2.878740642
6.10E+05,2.876778716
6.13E+05,2.874850735
6.15E+05,2.872911695
6.18E+05,2.870980054
6.20E+05,2.869050559
6.23E+05,2.867141727
6.25E+05,2.865224706
6.28E+05,2.863336178
6.30E+05,2.861432346
6.33E+05,2.859533293
6.35E+05,2.857636191
6.38E+05,2.855772524
6.40E+05,2.853899837
6.43E+05,2.852032953
6.45E+05,2.850162252
6.48E+05,2.848306085
6.50E+05,2.84646109
6.53E+05,2.844608359
6.55E+05,2.842768316
6.58E+05,2.840937672
6.60E+05,2.839118211
6.63E+05,2.83729114
6.65E+05,2.835464191
6.68E+05,2.833649878
6.70E+05,2.831842949
6.73E+05,2.830048542
6.75E+05,2.82823979
6.78E+05,2.826457402
6.80E+05,2.82466541
6.83E+05,2.822894678
6.85E+05,2.821114915
6.88E+05,2.819331778
6.90E+05,2.817578824
6.93E+05,2.815807024
6.95E+05,2.814051851
6.98E+05,2.812287143
7.00E+05,2.810551159
7.03E+05,2.80880939
7.05E+05,2.807077485
7.08E+05,2.805350655
7.10E+05,2.803600454
7.13E+05,2.801876682
7.15E+05,2.800155967
7.18E+05,2.798454397
7.20E+05,2.796731782
7.23E+05,2.795036968
7.25E+05,2.7933265
7.28E+05,2.79163282
7.30E+05,2.789927629
7.33E+05,2.788247228
7.35E+05,2.786559076
7.38E+05,2.78488463
7.40E+05,2.783214971
7.43E+05,2.781529264
7.45E+05,2.779859714
7.48E+05,2.778195141
7.50E+05,2.776538516
7.53E+05,2.774887105
7.55E+05,2.773232457
7.58E+05,2.771578498
7.60E+05,2.769941535
7.63E+05,2.768305162
7.65E+05,2.766658927
7.68E+05,2.765019269
7.70E+05,2.763397453
7.73E+05,2.761778076
7.75E+05,2.760149931
7.78E+05,2.758526414
7.80E+05,2.756915255
7.83E+05,2.75530221
7.85E+05,2.753695545
7.88E+05,2.752102347
7.90E+05,2.750488449
7.93E+05,2.748897102
7.95E+05,2.747304299
7.98E+05,2.745719423
8.00E+05,2.744168474
8.03E+05,2.742521451
8.05E+05,2.740987093
8.08E+05,2.739346512
8.10E+05,2.737838735
8.13E+05,2.736244875
8.15E+05,2.734691483
8.18E+05,2.733086466
8.20E+05,2.73156066
8.23E+05,2.729980045
8.25E+05,2.728421824
8.28E+05,2.726872918
8.30E+05,2.725340429
8.33E+05,2.723783043
8.35E+05,2.72224468
8.38E+05,2.720728553
8.40E+05,2.719164971
8.43E+05,2.71766675
8.45E+05,2.716139706
8.48E+05,2.714596657
8.50E+05,2.713076857
8.53E+05,2.711554626
8.55E+05,2.710052251
8.58E+05,2.708474867
8.60E+05,2.706981439
8.63E+05,2.705483987
8.65E+05,2.703953074
8.68E+05,2.702405186
8.70E+05,2.701004013
8.73E+05,2.69949596
8.75E+05,2.698025638
8.78E+05,2.696491083
8.80E+05,2.695009837
8.83E+05,2.693484014
8.85E+05,2.692041958
8.88E+05,2.690529034
8.90E+05,2.689126111
8.93E+05,2.687563776
8.95E+05,2.686089722
8.98E+05,2.684636342
9.00E+05,2.683177197
9.03E+05,2.681741157
9.05E+05,2.680228393
9.08E+05,2.678784052
9.10E+05,2.677296
9.13E+05,2.675859051
9.15E+05,2.674383983
9.18E+05,2.672933139
9.20E+05,2.671504402
9.23E+05,2.670026658
9.25E+05,2.668613327
9.28E+05,2.667196902
9.30E+05,2.665644684
9.33E+05,2.664245848
9.35E+05,2.662794076
9.38E+05,2.661360653
9.40E+05,2.659991549
9.43E+05,2.658509502
9.45E+05,2.657112782
9.48E+05,2.655643063
9.50E+05,2.654258699
9.53E+05,2.652828847
9.55E+05,2.65140996
9.58E+05,2.649922011
9.60E+05,2.64855919
9.63E+05,2.647140658
9.65E+05,2.645743172
9.68E+05,2.644282889
9.70E+05,2.642884308
9.73E+05,2.641521374
9.75E+05,2.640088713
9.78E+05,2.638673032
9.80E+05,2.637327161
9.83E+05,2.635916876
9.85E+05,2.634480616
9.88E+05,2.633087934
9.90E+05,2.631674517
9.93E+05,2.630331386
9.95E+05,2.628917463
9.98E+05,2.627498629
1.00E+06,2.626116799
1.00E+06,2.624693499
1.01E+06,2.623351403
1.01E+06,2.622015742
1.01E+06,2.620597969
1.01E+06,2.619236738
1.02E+06,2.617836552
1.02E+06,2.616449377
1.02E+06,2.6150909
1.02E+06,2.61369609
1.03E+06,2.612340826
1.03E+06,2.610999831
1.03E+06,2.609626754
1.03E+06,2.608239793
1.04E+06,2.606915223
1.04E+06,2.605517266
1.04E+06,2.60420861
1.04E+06,2.602831405
1.05E+06,2.601480646
1.05E+06,2.6001111
1.05E+06,2.598748652
1.05E+06,2.597382473
1.06E+06,2.596023617
1.06E+06,2.594672563
1.06E+06,2.593310436
1.06E+06,2.592038175
1.07E+06,2.590634955
1.07E+06,2.589282744
1.07E+06,2.587970214
1.07E+06,2.586598173
1.08E+06,2.58525605
1.08E+06,2.58389927
1.08E+06,2.582577492
1.08E+06,2.581254858
1.09E+06,2.579888415
1.09E+06,2.578577591
1.09E+06,2.577262564
1.09E+06,2.57592259
1.10E+06,2.574560251
1.10E+06,2.573244356
1.10E+06,2.57190575
1.10E+06,2.570593427
1.11E+06,2.569274591
1.11E+06,2.567952673
1.11E+06,2.566631399
1.11E+06,2.565281733
1.12E+06,2.563988033
1.12E+06,2.562652532
1.12E+06,2.561315516
1.12E+06,2.560007871
1.13E+06,2.558699724
1.13E+06,2.557356269
1.13E+06,2.556034661
1.13E+06,2.554755686
1.14E+06,2.553403959
1.14E+06,2.552100678
1.14E+06,2.550774857
1.14E+06,2.549473623
1.15E+06,2.548159121
1.15E+06,2.546846091
1.15E+06,2.545547247
1.15E+06,2.544272525
1.16E+06,2.542898769
1.16E+06,2.541636195
1.16E+06,2.540322168
1.16E+06,2.539018196
1.17E+06,2.537708435
1.17E+06,2.536425179
1.17E+06,2.535097681
1.17E+06,2.533833977
1.18E+06,2.532502272
1.18E+06,2.531213849
1.18E+06,2.529953741
1.18E+06,2.52861871
1.19E+06,2.527333202
1.19E+06,2.526038035
1.19E+06,2.524733242
1.19E+06,2.523436395
1.20E+06,2.522162867
1.20E+06,2.520845947
1.20E+06,2.519585892
1.20E+06,2.518262009
1.21E+06,2.51699066
1.21E+06,2.51567694
1.21E+06,2.514424093
1.21E+06,2.513111883
1.22E+06,2.511820245
1.22E+06,2.510536941
1.22E+06,2.509261741
1.22E+06,2.507961374
1.23E+06,2.506680272
1.23E+06,2.505404054
1.23E+06,2.504088893
1.23E+06,2.502812346
1.24E+06,2.50153712
1.24E+06,2.500261617
1.24E+06,2.498985845
1.24E+06,2.49770463
1.25E+06,2.496406586
1.25E+06,2.495163546
1.25E+06,2.493847597
1.25E+06,2.492603412
1.26E+06,2.491316638
1.26E+06,2.490027478
1.26E+06,2.488740501
1.26E+06,2.487495846
1.27E+06,2.486205554
1.27E+06,2.484921012
1.27E+06,2.483675417
1.27E+06,2.482397459
1.28E+06,2.481096737
1.28E+06,2.479811851
1.28E+06,2.478534657
1.28E+06,2.477266621
1.29E+06,2.476002883
1.29E+06,2.474721508
1.29E+06,2.473452201
1.29E+06,2.472186521
1.30E+06,2.470910806
1.30E+06,2.469644114
1.30E+06,2.468379421
1.30E+06,2.46712066
1.31E+06,2.465828873
1.31E+06,2.464547676
1.31E+06,2.463286981
1.31E+06,2.462009097
1.32E+06,2.46074113
1.32E+06,2.459467439
1.32E+06,2.458195279
1.32E+06,2.4569472
1.33E+06,2.455634363
1.33E+06,2.454401058
1.33E+06,2.453085687
1.33E+06,2.451860847
1.34E+06,2.450574285
1.34E+06,2.4492978
1.34E+06,2.44807048
1.34E+06,2.446792775
1.35E+06,2.445500885
1.35E+06,2.444247575
1.35E+06,2.442970992
1.35E+06,2.441718337
1.36E+06,2.440439173
1.36E+06,2.439193006
1.36E+06,2.437879259
1.36E+06,2.436633331
1.37E+06,2.435369251
1.37E+06,2.434096528
1.37E+06,2.432864014
1.37E+06,2.431577128
1.38E+06,2.430311137
1.38E+06,2.429056921
1.38E+06,2.427798473
1.38E+06,2.426511552
1.39E+06,2.425248309
1.39E+06,2.423989481
1.39E+06,2.422716109
1.39E+06,2.421463209
1.40E+06,2.420196498
1.40E+06,2.418901773
1.40E+06,2.41763916
1.40E+06,2.416360394
1.41E+06,2.415107238
1.41E+06,2.413856094
1.41E+06,2.412572895
1.41E+06,2.411310226
1.42E+06,2.410044693
1.42E+06,2.408743486
1.42E+06,2.4075152
1.42E+06,2.406253505
1.43E+06,2.404958374
1.43E+06,2.403688422
1.43E+06,2.402397116
1.43E+06,2.401140563
1.44E+06,2.399875611
1.44E+06,2.398634536
1.44E+06,2.397332854
1.44E+06,2.39609046
1.45E+06,2.39481271
1.45E+06,2.393516715
1.45E+06,2.392245627
1.45E+06,2.391019707
1.46E+06,2.389719271
1.46E+06,2.388427149
1.46E+06,2.387165886
1.46E+06,2.385897187
1.47E+06,2.384638898
1.47E+06,2.383384215
1.47E+06,2.38206781
1.47E+06,2.38080122
1.48E+06,2.379540975
1.48E+06,2.378270631
1.48E+06,2.376974916
1.48E+06,2.375696117
1.49E+06,2.374419923
1.49E+06,2.373167509
1.49E+06,2.371894139
1.49E+06,2.370606764
1.50E+06,2.369330132
1.50E+06,2.368042755
1.50E+06,2.366766112
1.50E+06,2.365493591
1.51E+06,2.364218752
1.51E+06,2.362938611
1.51E+06,2.361665564
1.51E+06,2.360382685
1.52E+06,2.359085338
1.52E+06,2.357802565
1.52E+06,2.356541676
1.52E+06,2.355223542
1.53E+06,2.353927375
1.53E+06,2.352683386
1.53E+06,2.351395958
1.53E+06,2.350099254
1.54E+06,2.348836589
1.54E+06,2.347529441
1.54E+06,2.346263548
1.54E+06,2.344966932
1.55E+06,2.343663866
1.55E+06,2.342375289
1.55E+06,2.341124751
1.55E+06,2.339801293
1.56E+06,2.338523189
1.56E+06,2.33721702
1.56E+06,2.335944364
1.56E+06,2.334639979
1.57E+06,2.333371018
1.57E+06,2.332091855
1.57E+06,2.330753946
1.57E+06,2.329462542
1.58E+06,2.328194882
1.58E+06,2.326869453
1.58E+06,2.325581185
1.58E+06,2.32423144
1.59E+06,2.322988272
1.59E+06,2.321675845
1.59E+06,2.320397203
1.59E+06,2.319049868
1.60E+06,2.31777183
1.60E+06,2.316488773
1.60E+06,2.315176988
1.60E+06,2.31385051
1.61E+06,2.312571658
1.61E+06,2.31125436
1.61E+06,2.309955186
1.61E+06,2.308621536
1.62E+06,2.30731959
1.62E+06,2.306011362
1.62E+06,2.304698764
1.62E+06,2.303422339
1.63E+06,2.302066233
1.63E+06,2.300755245
1.63E+06,2.299459758
1.63E+06,2.298114557
1.64E+06,2.296804085
1.64E+06,2.295504046
1.64E+06,2.294158346
1.64E+06,2.292828956
1.65E+06,2.291541518
1.65E+06,2.290204915
1.65E+06,2.288871752
1.65E+06,2.287544754
1.66E+06,2.286209924
1.66E+06,2.284907599
1.66E+06,2.283568299
1.66E+06,2.282232369
1.67E+06,2.280903061
1.67E+06,2.27957657
1.67E+06,2.278254885
1.67E+06,2.276905928
1.68E+06,2.275609748
1.68E+06,2.27424163
1.68E+06,2.272882458
1.68E+06,2.271561551
1.69E+06,2.270213846
1.69E+06,2.268892598
1.69E+06,2.267554072
1.69E+06,2.266182699
1.70E+06,2.264846343
1.70E+06,2.26350883
1.70E+06,2.262155531
1.70E+06,2.260787851
1.71E+06,2.259441887
1.71E+06,2.258090295
1.71E+06,2.256770473
1.71E+06,2.255377562
1.72E+06,2.254047121
1.72E+06,2.252677343
1.72E+06,2.251338208
1.72E+06,2.249949469
1.73E+06,2.248574024
1.73E+06,2.247228119
1.73E+06,2.245864065
1.73E+06,2.244484226
1.74E+06,2.243149705
1.74E+06,2.241758376
1.74E+06,2.240375863
1.74E+06,2.239018634
1.75E+06,2.237653282
1.75E+06,2.236278441
1.75E+06,2.234866622
1.75E+06,2.233490312
1.76E+06,2.23214222
1.76E+06,2.230746156
1.76E+06,2.229373094
1.76E+06,2.227980161
1.77E+06,2.226590134
1.77E+06,2.225203859
1.77E+06,2.223809476
1.77E+06,2.222416148
1.78E+06,2.221049938
1.78E+06,2.219637065
1.78E+06,2.218230338
1.78E+06,2.216821376
1.79E+06,2.215431583
1.79E+06,2.214053545
1.79E+06,2.212597471
1.79E+06,2.211204958
1.80E+06,2.209801739
1.80E+06,2.208363744
1.80E+06,2.207009297
1.80E+06,2.205554531
1.81E+06,2.204159013
1.81E+06,2.202742562
1.81E+06,2.201317797
1.81E+06,2.199903831
1.82E+06,2.198486979
1.82E+06,2.197026801
1.82E+06,2.19564082
1.82E+06,2.194204957
1.83E+06,2.192755323
1.83E+06,2.191322062
1.83E+06,2.189896776
1.83E+06,2.18845769
1.84E+06,2.187013032
1.84E+06,2.185556864
1.84E+06,2.184155901
1.84E+06,2.182675123
1.85E+06,2.181242197
1.85E+06,2.179806499
1.85E+06,2.178330203
1.85E+06,2.176881741
1.86E+06,2.175439011
1.86E+06,2.173959636
1.86E+06,2.172519932
1.86E+06,2.171032972
1.87E+06,2.169566526
1.87E+06,2.168110392
1.87E+06,2.166638258
1.87E+06,2.16517325
1.88E+06,2.163692922
1.88E+06,2.162206558
1.88E+06,2.160768422
1.88E+06,2.159242437
1.89E+06,2.157772471
1.89E+06,2.156297943
1.89E+06,2.154812925
1.89E+06,2.153308658
1.90E+06,2.151809369
1.90E+06,2.150305974
1.90E+06,2.148840368
1.90E+06,2.147306456
1.91E+06,2.145817386
1.91E+06,2.144320918
1.91E+06,2.142793361
1.91E+06,2.141286101
1.92E+06,2.13975663
1.92E+06,2.138240966
1.92E+06,2.136733328
1.92E+06,2.135169598
1.93E+06,2.13366805
1.93E+06,2.132159369
1.93E+06,2.130623954
1.93E+06,2.129092077
1.94E+06,2.127550556
1.94E+06,2.126022083
1.94E+06,2.124498479
1.94E+06,2.122916927
1.95E+06,2.121372281
1.95E+06,2.11983087
1.95E+06,2.118245047
1.95E+06,2.116706567
1.96E+06,2.115154155
1.96E+06,2.11359818
1.96E+06,2.112054985
1.96E+06,2.110454107
1.97E+06,2.108872276
1.97E+06,2.107309074
1.97E+06,2.105712037
1.97E+06,2.104146194
1.98E+06,2.102562795
1.98E+06,2.100959809
1.98E+06,2.099413077
1.98E+06,2.097774979
1.99E+06,2.096161118
1.99E+06,2.094551338
1.99E+06,2.092916489
1.99E+06,2.091335114
2.00E+06,2.089732648
2.00E+06,2.088117937
2.00E+06,2.086517241
2.00E+06,2.084878035
2.01E+06,2.083247135
2.01E+06,2.081635557
2.01E+06,2.07999596
2.01E+06,2.078381285
2.02E+06,2.076722631
2.02E+06,2.075091856
2.02E+06,2.073426918
2.02E+06,2.071775024
2.03E+06,2.070144767
2.03E+06,2.068488562
2.03E+06,2.066811682
2.03E+06,2.06514009
2.04E+06,2.063488456
2.04E+06,2.061812496
2.04E+06,2.060144918
2.04E+06,2.058474283
2.05E+06,2.056787012
2.05E+06,2.05510116
2.05E+06,2.053419383
2.05E+06,2.051723429
2.06E+06,2.050014358
2.06E+06,2.048317124
2.06E+06,2.046590103
2.06E+06,2.044903153
2.07E+06,2.043164829
2.07E+06,2.041457486
2.07E+06,2.03973567
2.07E+06,2.03799904
2.08E+06,2.036273259
2.08E+06,2.034525935
2.08E+06,2.032800092
2.08E+06,2.031050171
2.09E+06,2.029306218
2.09E+06,2.027539174
2.09E+06,2.025800779
2.09E+06,2.024010921
2.10E+06,2.022278458
2.10E+06,2.020500063
2.10E+06,2.018719159
2.10E+06,2.016942983
2.11E+06,2.015166387
2.11E+06,2.013364618
2.11E+06,2.011583491
2.11E+06,2.009764163
2.12E+06,2.007972269
2.12E+06,2.00615897
2.12E+06,2.00433545
2.12E+06,2.002526874
2.13E+06,2.000692566
2.13E+06,1.998866021
2.13E+06,1.99704339
2.13E+06,1.995204902
2.14E+06,1.993337211
2.14E+06,1.991500536
2.14E+06,1.989625403
2.14E+06,1.987762746
2.15E+06,1.985901077
2.15E+06,1.984038716
2.15E+06,1.982163381
2.15E+06,1.980273468
2.16E+06,1.97836108
2.16E+06,1.976494296
2.16E+06,1.974597552
2.16E+06,1.972701246
2.17E+06,1.970776862
2.17E+06,1.968841629
2.17E+06,1.966922078
2.17E+06,1.964999393
2.18E+06,1.963077473
2.18E+06,1.961132605
2.18E+06,1.959180722
2.18E+06,1.957216021
2.19E+06,1.955274184
2.19E+06,1.953317872
2.19E+06,1.9513416
2.19E+06,1.949353085
2.20E+06,1.947355082
2.20E+06,1.945383277
2.20E+06,1.94337947
2.20E+06,1.941368506
2.21E+06,1.939385009
2.21E+06,1.937362935
2.21E+06,1.935331972
2.21E+06,1.933290419
2.22E+06,1.93126368
2.22E+06,1.92921176
2.22E+06,1.9271702
2.22E+06,1.925110516
2.23E+06,1.923026808
2.23E+06,1.920961044
2.23E+06,1.91888763
2.23E+06,1.916796385
2.24E+06,1.914699747
2.24E+06,1.91262727
2.24E+06,1.910508656
2.24E+06,1.908375754
2.25E+06,1.90625914
2.25E+06,1.904130105
2.25E+06,1.901966571
2.25E+06,1.899841679
2.26E+06,1.897690443
2.26E+06,1.895512641
2.26E+06,1.893347725
2.26E+06,1.891160701
2.27E+06,1.888968533
2.27E+06,1.886777631
2.27E+06,1.884578116
2.27E+06,1.882329375
2.28E+06,1.880158098
2.28E+06,1.877905679
2.28E+06,1.875669334
2.28E+06,1.873419272
2.29E+06,1.871150832
2.29E+06,1.868904714
2.29E+06,1.866618513
2.29E+06,1.864328643
2.30E+06,1.862055147
2.30E+06,1.859754506
2.30E+06,1.857442331
2.30E+06,1.855117005
2.31E+06,1.852790199
2.31E+06,1.850438034
2.31E+06,1.848102503
2.31E+06,1.845721157
2.32E+06,1.843365831
2.32E+06,1.840997654
2.32E+06,1.838590008
2.32E+06,1.836184706
2.33E+06,1.83377591
2.33E+06,1.831357078
2.33E+06,1.828942927
2.33E+06,1.826497433
2.34E+06,1.824022712
2.34E+06,1.821563411
2.34E+06,1.819090356
2.34E+06,1.816608057
2.35E+06,1.814105201
2.35E+06,1.811595627
2.35E+06,1.809062079
2.35E+06,1.806544467
2.36E+06,1.803994138
2.36E+06,1.801433951
2.36E+06,1.798869754
2.36E+06,1.796279967
2.37E+06,1.793703598
2.37E+06,1.791094619
2.37E+06,1.788448392
2.37E+06,1.78584599
2.38E+06,1.783176107
2.38E+06,1.780539921
2.38E+06,1.777865724
2.38E+06,1.775148389
2.39E+06,1.772480669
2.39E+06,1.769774054
2.39E+06,1.767041264
2.39E+06,1.764312236
2.40E+06,1.761551005
2.40E+06,1.758776971
